,Date,High,Low,Open,Close,Volume,Adj Close
0,21/11/2022,16500,16500,16500,16500,-,15700
1,22/11/2022,16500,16500,16500,16500,-,15700
2,23/11/2022,16500,16500,16500,16500,-,15700
3,24/11/2022,16500,16500,16500,16500,-,15700
4,25/11/2022,16500,16500,16500,16500,-,15700
5,28/11/2022,23000,23000,23000,23000,100,21900
6,29/11/2022,23000,23000,23000,23000,-,21900
7,30/11/2022,26000,26000,26000,26000,100,24700
8,01/12/2022,26000,26000,26000,26000,-,24700
9,02/12/2022,26000,26000,26000,26000,-,24700
10,05/12/2022,26000,26000,26000,26000,-,24700
11,06/12/2022,26000,26000,26000,26000,-,24700
12,07/12/2022,26000,26000,26000,26000,-,24700
13,08/12/2022,26000,26000,26000,26000,-,24700
14,09/12/2022,26000,26000,26000,26000,-,24700
15,12/12/2022,26000,26000,26000,26000,-,24700
16,13/12/2022,26000,26000,26000,26000,-,24700
17,14/12/2022,26000,26000,26000,26000,-,24700
18,15/12/2022,26000,26000,26000,26000,-,24700
19,16/12/2022,26000,26000,26000,26000,-,24700
20,19/12/2022,29000,26000,26000,29000,34000,27600
21,20/12/2022,27200,27200,27200,27200,-,25900
22,21/12/2022,27200,27200,27200,27200,-,25900
23,22/12/2022,27200,27200,27200,27200,-,25900
24,23/12/2022,27200,27200,27200,27200,-,25900
25,26/12/2022,27200,27200,27200,27200,-,25900
26,27/12/2022,27200,27200,27200,27200,-,25900
27,28/12/2022,27200,27200,27200,27200,-,25900
28,29/12/2022,27200,27200,27200,27200,-,25900
29,30/12/2022,27200,27200,27200,27200,-,25900
30,03/01/2023,27200,27200,27200,27200,-,25900
31,04/01/2023,27200,27200,27200,27200,-,25900
32,05/01/2023,27200,27200,27200,27200,-,25900
33,06/01/2023,31200,31200,31200,31200,100,29700
34,09/01/2023,31200,31200,31200,31200,-,29700
35,10/01/2023,31200,31200,31200,31200,-,29700
36,11/01/2023,31200,31200,31200,31200,-,29700
37,12/01/2023,31200,31200,31200,31200,-,29700
38,13/01/2023,31200,31200,31200,31200,-,29700
39,16/01/2023,31200,31200,31200,31200,-,29700
40,17/01/2023,31200,31200,31200,31200,-,29700
41,18/01/2023,31200,31200,31200,31200,-,29700
42,19/01/2023,31200,31200,31200,31200,-,29700
43,27/01/2023,31200,31200,31200,31200,-,29700
44,30/01/2023,31200,31200,31200,31200,-,29700
45,31/01/2023,31200,31200,31200,31200,-,29700
46,01/02/2023,31200,31200,31200,31200,100,29700
47,02/02/2023,31200,31200,31200,31200,-,29700
48,03/02/2023,31200,31200,31200,31200,-,29700
49,06/02/2023,31200,31200,31200,31200,-,29700
50,07/02/2023,31200,31200,31200,31200,-,29700
51,08/02/2023,31200,31200,31200,31200,-,29700
52,09/02/2023,31200,31200,31200,31200,-,29700
53,10/02/2023,31200,31200,31200,31200,-,29700
54,13/02/2023,31200,31200,31200,31200,-,29700
55,14/02/2023,31200,31200,31200,31200,-,29700
56,15/02/2023,31200,31200,31200,31200,-,29700
57,16/02/2023,31200,31200,31200,31200,-,29700
58,17/02/2023,31200,31200,31200,31200,-,29700
59,20/02/2023,31200,31200,31200,31200,-,29700
60,21/02/2023,31200,31200,31200,31200,-,29700
61,22/02/2023,31200,31200,31200,31200,-,29700
62,23/02/2023,31200,31200,31200,31200,-,29700
63,24/02/2023,31200,31200,31200,31200,-,29700
64,27/02/2023,31200,31200,31200,31200,-,29700
65,28/02/2023,31200,31200,31200,31200,-,29700
66,01/03/2023,31200,31200,31200,31200,-,29700
67,02/03/2023,31200,31200,31200,31200,-,29700
68,03/03/2023,31200,31200,31200,31200,-,29700
69,06/03/2023,31200,31200,31200,31200,-,29700
70,07/03/2023,31200,31200,31200,31200,-,29700
71,08/03/2023,31200,31200,31200,31200,-,29700
72,09/03/2023,31200,31200,31200,31200,-,29700
73,10/03/2023,31200,31200,31200,31200,-,29700
74,13/03/2023,31200,31200,31200,31200,-,29700
75,14/03/2023,31200,31200,31200,31200,-,29700
76,15/03/2023,31200,31200,31200,31200,-,29700
77,16/03/2023,31200,31200,31200,31200,-,29700
78,17/03/2023,31200,31200,31200,31200,-,29700
79,20/03/2023,31200,31200,31200,31200,-,29700
80,21/03/2023,31200,31200,31200,31200,-,29700
81,22/03/2023,31200,31200,31200,31200,-,29700
82,23/03/2023,31200,31200,31200,31200,-,29700
83,24/03/2023,31200,31200,31200,31200,-,29700
84,27/03/2023,31200,31200,31200,31200,-,29700
85,28/03/2023,31200,31200,31200,31200,-,29700
86,29/03/2023,31200,31200,31200,31200,-,29700
87,30/03/2023,31200,31200,31200,31200,-,29700
88,31/03/2023,31200,31200,31200,31200,-,29700
89,03/04/2023,31200,31200,31200,31200,-,29700
90,04/04/2023,31200,31200,31200,31200,-,29700
91,05/04/2023,31200,31200,31200,31200,-,29700
92,06/04/2023,31200,31200,31200,31200,-,29700
93,07/04/2023,31200,31200,31200,31200,-,29700
94,10/04/2023,31200,31200,31200,31200,-,29700
95,11/04/2023,31200,31200,31200,31200,-,29700
96,12/04/2023,31200,31200,31200,31200,-,29700
97,13/04/2023,31200,31200,31200,31200,-,29700
98,14/04/2023,31200,31200,31200,31200,-,29700
99,17/04/2023,31200,31200,31200,31200,-,29700
100,18/04/2023,31200,31200,31200,31200,-,29700
101,19/04/2023,31200,31200,31200,31200,-,29700
102,20/04/2023,31200,31200,31200,31200,-,29700
103,21/04/2023,31200,31200,31200,31200,-,29700
104,24/04/2023,31200,31200,31200,31200,-,29700
105,25/04/2023,31200,31200,31200,31200,-,29700
106,26/04/2023,31200,31200,31200,31200,-,29700
107,27/04/2023,31200,31200,31200,31200,-,29700
108,28/04/2023,31200,31200,31200,31200,-,29700
109,04/05/2023,31200,31200,31200,31200,-,29700
110,05/05/2023,31200,31200,31200,31200,-,29700
111,08/05/2023,31200,31200,31200,31200,-,29700
112,09/05/2023,31200,31200,31200,31200,-,29700
113,10/05/2023,31200,31200,31200,31200,-,29700
114,11/05/2023,31200,31200,31200,31200,-,29700
115,12/05/2023,31200,31200,31200,31200,-,29700
116,15/05/2023,31200,31200,31200,31200,-,29700
117,16/05/2023,31200,31200,31200,31200,-,29700
118,17/05/2023,31200,31200,31200,31200,-,29700
119,18/05/2023,31200,31200,31200,31200,-,29700
120,19/05/2023,31200,31200,31200,31200,-,29700
121,22/05/2023,31200,31200,31200,31200,-,29700
122,23/05/2023,31200,31200,31200,31200,-,29700
123,24/05/2023,31200,31200,31200,31200,-,29700
124,25/05/2023,31200,31200,31200,31200,-,29700
125,26/05/2023,31200,31200,31200,31200,100,29700
126,29/05/2023,31200,31200,31200,31200,-,29700
127,30/05/2023,31200,31200,31200,31200,-,29700
128,31/05/2023,31200,31200,31200,31200,-,29700
129,01/06/2023,31200,31200,31200,31200,-,29700
130,02/06/2023,31200,31200,31200,31200,-,29700
131,05/06/2023,31200,31200,31200,31200,-,29700
132,06/06/2023,31200,31200,31200,31200,-,29700
133,07/06/2023,31200,31200,31200,31200,-,29700
134,08/06/2023,31200,31200,31200,31200,-,29700
135,09/06/2023,31200,31200,31200,31200,-,29700
136,12/06/2023,31200,31200,31200,31200,-,29700
137,13/06/2023,31200,31200,31200,31200,-,29700
138,14/06/2023,31200,31200,31200,31200,-,29700
139,15/06/2023,31200,31200,31200,31200,-,29700
140,16/06/2023,31200,31200,31200,31200,-,29700
141,19/06/2023,31200,31200,31200,31200,-,29700
142,20/06/2023,31200,31200,31200,31200,-,29700
143,21/06/2023,31200,31200,31200,31200,-,29700
144,22/06/2023,31200,31200,31200,31200,-,29700
145,23/06/2023,31200,31200,31200,31200,-,29700
146,26/06/2023,31200,31200,31200,31200,-,29700
147,27/06/2023,31200,31200,31200,31200,-,29700
148,28/06/2023,31200,31200,31200,31200,-,29700
149,29/06/2023,31200,31200,31200,31200,-,29700
150,30/06/2023,31200,31200,31200,31200,-,29700
151,03/07/2023,31200,31200,31200,31200,-,29700
152,04/07/2023,31200,31200,31200,31200,-,29700
153,05/07/2023,31200,31200,31200,31200,-,29700
154,06/07/2023,31200,31200,31200,31200,-,29700
155,07/07/2023,31200,31200,31200,31200,-,29700
156,10/07/2023,31200,31200,31200,31200,-,29700
157,11/07/2023,31200,31200,31200,31200,-,29700
158,12/07/2023,31200,31200,31200,31200,100,29700
159,13/07/2023,31200,31200,31200,31200,-,29700
160,14/07/2023,31200,31200,31200,31200,-,29700
161,17/07/2023,29700,29700,29700,29700,-,29700
162,18/07/2023,29700,29700,29700,29700,-,29700
163,19/07/2023,29700,29700,29700,29700,-,29700
164,20/07/2023,29700,29700,29700,29700,-,29700
165,21/07/2023,29700,29700,29700,29700,-,29700
166,24/07/2023,29700,29700,29700,29700,-,29700
167,25/07/2023,29700,29700,29700,29700,-,29700
168,26/07/2023,29700,29700,29700,29700,-,29700
169,27/07/2023,29700,29700,29700,29700,-,29700
170,28/07/2023,29700,29700,29700,29700,-,29700
171,31/07/2023,29700,29700,29700,29700,-,29700
172,01/08/2023,29700,29700,29700,29700,-,29700
173,02/08/2023,29700,29700,29700,29700,-,29700
174,03/08/2023,29700,29700,29700,29700,-,29700
175,04/08/2023,29700,29700,29700,29700,-,29700
176,07/08/2023,29700,29700,29700,29700,-,29700
177,08/08/2023,29700,29700,29700,29700,-,29700
178,09/08/2023,29700,29700,29700,29700,-,29700
179,10/08/2023,29700,29700,29700,29700,-,29700
180,11/08/2023,29700,29700,29700,29700,-,29700
181,14/08/2023,29700,29700,29700,29700,-,29700
182,15/08/2023,29700,29700,29700,29700,-,29700
183,16/08/2023,29700,29700,29700,29700,-,29700
184,17/08/2023,29700,29700,29700,29700,-,29700
185,18/08/2023,29700,29700,29700,29700,-,29700
186,21/08/2023,29700,29700,29700,29700,-,29700
187,22/08/2023,29700,29700,29700,29700,-,29700
188,23/08/2023,29700,29700,29700,29700,-,29700
189,24/08/2023,29700,29700,29700,29700,-,29700
190,25/08/2023,29700,29700,29700,29700,-,29700
191,28/08/2023,29700,29700,29700,29700,-,29700
192,29/08/2023,29700,29700,29700,29700,-,29700
193,30/08/2023,29700,29700,29700,29700,-,29700
194,31/08/2023,29700,29700,29700,29700,-,29700
195,05/09/2023,29700,29700,29700,29700,-,29700
196,06/09/2023,29700,29700,29700,29700,-,29700
197,07/09/2023,29700,29700,29700,29700,-,29700
198,08/09/2023,29700,29700,29700,29700,-,29700
199,11/09/2023,29700,29700,29700,29700,-,29700
200,12/09/2023,29700,29700,29700,29700,-,29700
201,13/09/2023,29700,29700,29700,29700,-,29700
202,14/09/2023,29700,29700,29700,29700,-,29700
203,15/09/2023,29700,29700,29700,29700,-,29700
204,18/09/2023,29700,29700,29700,29700,-,29700
205,19/09/2023,29700,29700,29700,29700,-,29700
206,20/09/2023,29700,29700,29700,29700,-,29700
207,21/09/2023,29700,29700,29700,29700,-,29700
208,22/09/2023,29700,29700,29700,29700,-,29700
209,25/09/2023,29700,29700,29700,29700,-,29700
210,26/09/2023,29700,29700,29700,29700,-,29700
211,27/09/2023,29700,29700,29700,29700,-,29700
212,28/09/2023,29700,29700,29700,29700,-,29700
213,29/09/2023,29700,29700,29700,29700,-,29700
214,02/10/2023,29700,29700,29700,29700,-,29700
215,03/10/2023,29700,29700,29700,29700,-,29700
216,04/10/2023,29700,29700,29700,29700,34100,29700
217,05/10/2023,29700,29700,29700,29700,-,29700
218,06/10/2023,29700,29700,29700,29700,-,29700
219,09/10/2023,29700,29700,29700,29700,-,29700
220,10/10/2023,29700,29700,29700,29700,-,29700
221,11/10/2023,29700,29700,29700,29700,-,29700
222,12/10/2023,29700,29700,29700,29700,-,29700
223,13/10/2023,29700,29700,29700,29700,-,29700
224,16/10/2023,29700,29700,29700,29700,-,29700
225,17/10/2023,29700,29700,29700,29700,-,29700
226,18/10/2023,29700,29700,29700,29700,-,29700
227,19/10/2023,29700,29700,29700,29700,-,29700
228,20/10/2023,29700,29700,29700,29700,-,29700
229,23/10/2023,29700,29700,29700,29700,-,29700
230,24/10/2023,29700,29700,29700,29700,-,29700
231,25/10/2023,29700,29700,29700,29700,-,29700
232,26/10/2023,29700,29700,29700,29700,-,29700
233,27/10/2023,29700,29700,29700,29700,-,29700
234,30/10/2023,29700,29700,29700,29700,-,29700
235,31/10/2023,29700,29700,29700,29700,-,29700
236,01/11/2023,29700,29700,29700,29700,-,29700
237,02/11/2023,29700,29700,29700,29700,-,29700
238,03/11/2023,29700,29700,29700,29700,-,29700
239,06/11/2023,29700,29700,29700,29700,-,29700
240,07/11/2023,29700,29700,29700,29700,-,29700
241,08/11/2023,29700,29700,29700,29700,-,29700
242,09/11/2023,29700,29700,29700,29700,-,29700
243,10/11/2023,29700,29700,29700,29700,-,29700
244,13/11/2023,29700,29700,29700,29700,-,29700
245,14/11/2023,29700,29700,29700,29700,-,29700
246,15/11/2023,29700,29700,29700,29700,-,29700
247,16/11/2023,29700,29700,29700,29700,-,29700
248,17/11/2023,29700,29700,29700,29700,-,29700
249,20/11/2023,29700,29700,29700,29700,-,29700
